T(s);0.0
Raman Shift (cm-1);counts
554.2297170553272;0.00022021119366399944
555.7081472571703;0.0002410890010651201
557.1859625307118;0.00025202499818988144
558.6631631929271;0.00025451043620705605
560.1397495605659;0.00027489117928780615
561.6157219501391;0.0002955204399768263
563.0910806779283;0.00030620789038948715
564.565826059989;0.0003365304146427661
566.0399584121386;0.00036188203375786543
567.5134780499754;0.00039096185355447233
568.9863852888525;0.0004279951099306345
570.4586804439064;0.0004747216298710555
571.9303638300369;0.0005224423366598785
573.4014357619186;0.0005617124843411148
574.8718965539919;0.0005915379733778536
576.3417465204736;0.0006688355351798236
577.8109859753489;0.0007011464331299067
579.2796152323726;0.0007379311718977988
580.7476346050768;0.0007829178939573467
582.2150444067565;0.0008341182256117463
583.6818449504884;0.0008495280053466558
585.1480365491146;0.0008825845434330404
586.6136195152518;0.0009019711287692189
588.0785941612888;0.0009216062026098371
589.5429607993916;0.0009636103641241789
591.0067197414936;0.000986227998510003
592.4698712992988;0.0010048688855022192
593.932415784296;0.0010389195522293448
595.394353507736;0.0010523410746827722
596.8556847806504;0.0010694906814023852
598.3164099138388;0.0010550750885158777
599.7765292178838;0.0010742130689322948
601.2360430031338;0.0010645197471603751
602.6949515797164;0.0010399137390777469
604.1532552575335;0.0010384224588051438
605.6109543462612;0.0010284807067364454
607.0680491553504;0.001029723440296948
608.5245399940309;0.0010170475579798222
609.9804271713023;0.001033203094266355
611.4357109959432;0.0010759528959169984
612.890391776511;0.0011962488060817122
614.3444698213335;0.0013426420046016574
615.7979454385169;0.0014925148570910096
617.2508189359487;0.0015941698802635074
618.7030906212865;0.001615047687664628
620.1547608019708;0.001550922985188663
621.6058297852127;0.0014296328881755471
623.0562978780082;0.0012698182836174965
624.5061653871236;0.0011475338833406568
625.9554326191108;0.0010774441761896014
627.4040998802892;0.0010289778001606464
628.8521674767703;0.0010476186871528625
630.2996357144294;0.0010709819616749883
631.7465048989311;0.0012009711936116219
633.192775335717;0.0013881258200854063
634.6384473299985;0.0015571366529911757
636.0835211867812;0.0017303727800026536
637.5279972108366;0.001778093515895307
638.9718757067258;0.0017624350730329752
640.4151569787821;0.0016657509841024876
641.857841331122;0.0015198548790067434
643.2999290676453;0.001332203159108758
644.7414204920238;0.0012263228418305516
646.1823159077196;0.0011097550159320235
647.6226156179686;0.0010128223802894354
649.0623199257922;0.0009633618174120784
650.5014291339866;0.0009238430648110807
651.9399435451372;0.0009061963646672666
653.3778634616044;0.0008875554776750505
654.8151891855357;0.0008810932631604373
656.2519210188555;0.0008746311068534851
657.6880592632752;0.0008656834834255278
659.1236042202817;0.0008696602308191359
660.5585561911547;0.0008738854667171836
661.9929154769449;0.0008900409447960556
663.4266823784922;0.0009002313017845154
664.8598571964201;0.0009148954413831234
666.2924402311347;0.000919120735488832
667.7244317828237;0.000949443259742111
669.1558321514595;0.0009646045509725809
670.5866416367983;0.0009434781968593597
672.0168605383811;0.0009544141939841211
673.4464891555301;0.000917132361792028
674.8755277873573;0.0008820874500088394
676.3039767327533;0.0008696602308191359
677.7318362903985;0.0008415745687671006
679.1591067587541;0.0008328754920512438
680.585788436069;0.0008132404182106256
682.0118816203798;0.0007953451713547111
683.4373866095012;0.0007856518495827913
684.8623037010383;0.0007682536961510777
686.2866331923856;0.0007598031661473215
687.7103753807163;0.0007324631442315876
689.1335305629956;0.0007274922681972384
690.5560990359719;0.0007128280703909695
691.9780810961829;0.000710591149982065
693.39947703995;0.0007150649907998741
694.8202871633839;0.0007068630075082183
696.2405117623806;0.0007095970213413239
697.6601511326261;0.0007083542877808213
699.0792055695935;0.0006899618892930448
700.4976753685437;0.0007011464331299067
701.9155608245205;0.0007086028344929218
703.3328622323642;0.0007006493397057056
704.7495798866979;0.0007021406199783087
706.1657140819302;0.0007304748287424445
707.5812651122725;0.0007538380450569093
708.9962332717062;0.0007829178939573467
710.4106188540173;0.0008082694839686155
711.8244221527713;0.0007891315035521984
713.2376434613292;0.0007712362566962838
714.6502830728332;0.0007580633391626179
716.0623412802285;0.0007113367901183665
717.4738183762385;0.000697915384080261
718.8847146533833;0.0006837482796981931
720.2950304039724;0.0006820084527134895
721.7047659200987;0.0006994066061452031
723.1139214936575;0.0007058688206598163
724.5224974163273;0.0007043775403872132
725.9304939795808;0.0007245097076520324
727.3379114746803;0.0007535894983448088
728.7447501926817;0.0007804324268363416
730.1510104244292;0.0008110034978017211
731.5566924605624;0.0008532562060281634
732.9617965915066;0.000887804024387151
734.3663231074897;0.0009546627406962216
735.770272298525;0.0009467092459090054
737.1736444544176;0.0009434781968593597
738.5764398647665;0.0009216062026098371
739.9786588189669;0.0008945147274062037
741.3803016062038;0.0008654349367134273
742.7813685154582;0.0008351124124601483
744.1818598354988;0.0008385920082218945
745.5817758548945;0.0008264133357442915
746.9811168620022;0.000824176415335387
748.3798831449807;0.0008333725854754448
749.7780749917771;0.0008373493328690529
751.1756926901298;0.0008530076593160629
752.5727365275781;0.0008828330901451409
753.9692067914569;0.0008890467579476535
755.3651037688915;0.0008965031011030078
756.7604277467984;0.0009052021778188646
758.1551790119016;0.0009104216587729752
759.54935785071;0.0008927749004215002
760.9429645495333;0.0008940176339820027
762.335999394475;0.0009131556143984199
763.7284626714328;0.0009469577926211059
765.120354666107;0.0009902047459036112
766.5116756639853;0.001058554626069963
767.9024259503605;0.0011974915396422148
769.2926058103146;0.0013066029641777277
770.682215528735;0.0014174542156979442
772.071255390294;0.0014967401511967182
773.4597256794733;0.0014733768766745925
774.8476266805463;0.001409997814334929
776.2349586775829;0.0013210185570642352
777.621721954455;0.0012365131406113505
779.0079167948271;0.0011348581174388528
780.3935434821658;0.0010399137390777469
781.7786022997343;0.00094894616631791
783.1630935305959;0.0009004798484966159
784.5470174576104;0.00087214563973248
785.9303743634358;0.0008276560110971332
787.3131645305307;0.0008371007861569524
788.6953882411539;0.0008182112942449749
790.0770457773651;0.0008331240387633443
791.4581374210135;0.000854498939588666
792.8386634537617;0.0008833301835693419
794.2186241570622;0.0009327907464466989
795.5980198121721;0.0009904532926157117
796.976850700145;0.0010901199420914054
798.3551171018388;0.0011651805834844708
799.7328192979126;0.0012452122755348682
801.1099575688232;0.0013868830865249038
802.4865321948263;0.0015036994591355324
803.8625434559818;0.001658543129451573
805.2379916321552;0.0017547302413731813
806.6128770030032;0.0018598649185150862
807.9871998479919;0.001969721866771579
809.3609604463859;0.0020631749648600817
810.7341590772544;0.0021608532406389713
812.1067960194652;0.0022162790410220623
813.4788715516884;0.0022466015070676804
814.8503859524035;0.0023328466340899467
816.2213394998798;0.0023828044068068266
817.5917324722021;0.002431022236123681
818.9615651472536;0.002421577461063862
820.3308378027159;0.0024101443123072386
821.6995507160794;0.002374602248892188
823.0677041646356;0.0022905939258635044
824.4352984254828;0.0022413821425288916
825.8023337755172;0.0021446978207677603
827.1688104914471;0.0020808216650038958
828.5347288497762;0.002053978852927685
829.9000891268159;0.0020268873777240515
831.2648915986863;0.0019490927224978805
832.629136541304;0.0019389023073017597
833.9928242303988;0.0019070885609835386
835.3559549415012;0.0019051001872867346
836.7185289499465;0.0018663271330296993
838.0805465308728;0.0018066761549562216
839.4420079592337;0.0017880352679640055
840.8029135097746;0.001724159112200141
842.1632634570591;0.0016978132771328092
843.5230580754464;0.0016244924627244473
844.882297639112;0.0015772688202559948
846.2409824220273;0.001525074359960854
847.5991126979812;0.0014631864614784718
848.9566887405573;0.0013764442410320044
850.3137108231587;0.0013486071256920695
851.6701792189826;0.0013200243702158332
853.0260942010443;0.001249934546649456
854.3814560421594;0.0012032081140205264
855.7362650149546;0.0011629437794908881
857.090521391862;0.001139331958256662
858.4442254451225;0.0011067724553868175
859.7973774467885;0.0010985705303028226
861.1499776687106;0.0010694906814023852
862.5020263825596;0.0010804266203194857
863.8535238598066;0.001061537186615169
865.2044703717321;0.00106203428003937
866.5548661894343;0.0010555721819400787
867.9047115838054;0.00104140501935035
869.2540068255621;0.0010553236352279782
870.602752185215;0.001044387579895556
871.950947933099;0.0010707334149628878
873.2985943393475;0.0010697392281144857
874.6456916739115;0.0010955879697576165
875.992240206543;0.0011147259501740336
877.3382402068133;0.0011395805049687624
878.6836919441013;0.0011172114172950387
880.0285956875928;0.0011435571359470487
881.3729517062867;0.0011358523042872548
882.716760268994;0.0011654291301965714
884.0600216443321;0.0011475338833406568
885.4027361007363;0.001140823238529265
886.7449039064471;0.0011201939778402448
888.0865253295206;0.0011134832166135311
889.4276006378171;0.0010856461012735963
890.7681300990203;0.0010888772085309029
892.1081139806174;0.0010645197471603751
893.4475525499103;0.0010426477529108524
894.7864460740092;0.0010197815718129277
896.1247948198449;0.0010220184922218323
897.4625990541504;0.0010041232453659177
898.7998590434835;0.0009914474794641137
900.1365750542045;0.0009872221853584051
901.4727473524871;0.0009854823583737016
902.8083762043274;0.0010063601657748222
904.1434618755284;0.0010163019178435206
905.4780046317043;0.0010185388382524252
906.8120047382873;0.001046873047016561
908.1454624605191;0.0010727217886596918
909.4783780634608;0.0010722246952354908
910.8107518119874;0.0011239220621064305
912.142583970781;0.0011517591774463654
913.4738748043454;0.0011718913447111845
914.8046245769964;0.0011455455096438527
916.1348335528629;0.0011291415430605412
917.4645019958939;0.0011269046226516366
918.7936301698453;0.001124667702242732
920.1222183382978;0.0010799295268952847
921.4502667646407;0.0010824149940162897
922.7777757120792;0.0010545779950916767
924.1047454436389;0.001042399206198752
925.4311762221562;0.0010677508544176817
926.7570683102856;0.0010697392281144857
928.0824219704996;0.0010655139340087771
929.4072374650816;0.0010684964945539832
930.7315150561377;0.0010824149940162897
932.0552550055893;0.0010724732419475913
933.3784575751695;0.0010791838867589831
934.7011230264354;0.0010921083157882094
936.0232516207557;0.0010784383630380034
937.3448436193212;0.0010849004611372948
938.6658992831341;0.0010650168405845761
939.9864188730207;0.0010230126790702343
941.3064026496193;0.0010115796467289329
942.6258508733916;0.000978771597146988
943.9447638046137;0.0009469577926211059
945.2631417033791;0.0009183750953525305
946.5809848296013;0.0009032138041220605
947.8982934430143;0.0008912836783565581
949.2150678031669;0.0008810932631604373
950.5313081694333;0.0008604640024714172
951.8470148009959;0.000823679321911186
953.1621879568623;0.000822685135062784
954.476827895864;0.000823182228486985
955.7909348766459;0.0008169685606844723
957.1045091576711;0.0008216909482143819
958.4175509972271;0.000792362610809505
959.7300606534187;0.0007995704072527587
961.0420383841735;0.0007926111575216055
962.3534844472345;0.0007955936598591506
963.664399100169;0.0007719818968325853
964.9747826003669;0.0007724789902567863
966.2846352050309;0.0007660167757421732
967.5939571711866;0.0007734731771051884
968.9027487556922;0.0007754614925943315
970.2110102152088;0.0007583118858747184
971.5187418062347;0.0007580633391626179
972.8259437850775;0.0007655196823179722
974.1326164078756;0.0007612944464199245
975.438759930581;0.0007568206056021154
976.7443746089743;0.0007709877099841833
978.0494606986563;0.0007873916765674949
979.3540184550474;0.0008067782036960125
980.6580481333928;0.0008425687556155026
981.9615499887576;0.0008656834834255278
983.2645242760356;0.0009188721887767315
984.566971249936;0.0009805114241316915
985.868891164995;0.0010242554126307368
987.1702842755709;0.0010699877748265862
988.4711508358437;0.0011510135373100638
989.7714910998205;0.0012596278684213758
991.0713053213282;0.0015104101039469242
992.3705937540179;0.0019490927224978805
993.6693566513699;0.002612957265228033
994.9675942666817;0.0034105393569916487
996.2653068530756;0.004245651885867119
997.5624946635024;0.004867263603955507
998.8591579507332;0.0051707373932003975
1000.1552969673652;0.0051307217217981815
1001.4509119658223;0.004683339968323708
1002.7460031983467;0.004081114660948515
1004.0405709170171;0.003447572700679302
1005.3346153737265;0.002832671394571662
1006.628136820194;0.0023673945106565952
1007.921135507974;0.0019602773245424032
1009.2136116884344;0.0016888657119125128
1010.5055656127763;0.0014694001292809844
1011.7969975320271;0.0012951698154211044
1013.0879076970323;0.0011646834900602698
1014.3782963584745;0.0011008073342964053
1015.668163766852;0.001059051719494164
1016.9575101724986;0.001029723440296948
1018.24633582557;0.00103071762714535
1019.5346409760486;0.0010232612257823348
1020.8224258737454;0.0010525896213948727
1022.1096907682978;0.001110997749492526
1023.3964359091678;0.0011815846664831042
1024.6826615456528;0.0012688240967690945
1025.968367926865;0.001357554690912366
1027.2535553017574;0.0014840643852949142
1028.538223919102;0.0016100768698379397
1029.8223740274996;0.0016592887695878744
1031.1060058753847;0.0017022871179506183
1032.3891197110136;0.001676686923019588
1033.6717157824753;0.0016565547557547688
1034.9537943376858;0.001523583079688251
1036.2353556243854;0.001457470003515482
1037.5163998901535;0.0013538266066461802
1038.796927382388;0.001266090082935989
1040.0769383483218;0.0011522562708705664
1041.3564330350139;0.00111298612318933
1042.6354116893567;0.0010568149155005813
1043.9138745580672;0.0009911989327520132
1045.1918218876967;0.0009653501911088824
1046.46925392462;0.0009437267435714602
1047.7461709150502;0.0009134041611105204
1049.0225731050236;0.0008875554776750505
1050.2984607404087;0.0008830816368572414
1051.5738340669097;0.0008743825601413846
1052.8486933300508;0.0008472911431454122
1054.1230387751932;0.0008361065993085504
1055.3968706475316;0.0008115005912259221
1056.6701891920868;0.0007980791269801557
1057.9429946537089;0.0007816751603968441
1059.2152872770866;0.0007707391632720828
1060.4870673067362;0.0007535894983448088
1061.758334987002;0.0007401680923067033
1063.0290905620636;0.0007356942514888942
1064.2993342759337;0.0007334573310799897
1065.5690663724538;0.0007327116909436882
1066.8382870953003;0.000713573710527271
1068.1069966879766;0.0006981639307923615
1069.3751953938252;0.0007195388316176832
1070.6428834560177;0.000712579523678869
1071.910061117556;0.0007242611609399319
1073.17672862128;0.0007093484746292233
1074.44288620986;0.0007217756938189268
1075.7085341257973;0.0007095970213413239
1076.9736726114286;0.000712082430254668
1078.2383019089255;0.0007274922681972384
1079.5024222602883;0.0007491157157346606
1080.7660339073552;0.0007563235121779144
1082.0291370917967;0.0007759585860185325
1083.2917320551167;0.000792362610809505
1084.5538190386524;0.0008013102342374623
1085.8153982835775;0.0007856518495827913
1087.0764700309019;0.0007936053443700075
1088.3370345214616;0.0007717333501204848
1089.597091995934;0.0008013102342374623
1090.8566426948325;0.0007799353334121406
1092.1156868584983;0.0008082694839686155
1093.3742247271125;0.0007856518495827913
1094.632256540694;0.0008100093109533191
1095.8897825390875;0.0008082694839686155
1097.1468029619841;0.0008418231154792011
1098.4033180489057;0.0008726427331566811
1099.6593280392053;0.0009260799852199852
1100.9148331720776;0.0009834939846768975
1102.1698336865538;0.001042399206198752
1103.4243298214951;0.0011515106307342649
1104.6783218156081;0.001249437453225255
1105.9318099074233;0.0013774384278804064
1107.1847943353225;0.0014962430577725172
1108.4372753375114;0.0016103254165500402
1109.6892531520373;0.0017047725850716233
1110.940728016789;0.0017669089138507843
1112.191700169483;0.0018106529023498297
1113.4421698476804;0.0017671574605628848
1114.692137288776;0.0017323611536994576
1115.941602730002;0.001661028596572578
1117.190566408434;0.0015434667002409697
1118.4390285609754;0.0014383320230990648
1119.686989424374;0.0013167932629585266
1120.9344492352138;0.0012650958960875869
1122.1814082299225;0.001140823238529265
1123.4278666447517;0.0010714790550991893
1124.6738247158087;0.0010048688855022192
1125.9192826790243;0.0009449694771319628
1127.1642407701797;0.0009074390982277691
1128.4086992248876;0.0008761223871260881
1129.6526582786041;0.0008602154557593167
1130.8961181666202;0.0008363551460206509
1132.1390791240674;0.000806529656983912
1133.3815413859202;0.0008028015145100653
1134.6235051869842;0.0008000675006769598
1135.8649707619134;0.0007804324268363416
1137.1059383452014;0.000790871330536902
1138.346408171172;0.0007652711356058717
1139.5863804739959;0.0007868945831432939
1140.825855487687;0.0007859003962948918
1142.064833446095;0.0007873916765674949
1143.3033145829065;0.0007881373167037964
1144.5412991316568;0.000807523843832314
1145.7787873257155;0.0008363551460206509
1147.0157793982994;0.0008380949730053544
1148.252275582455;0.0008612096426077187
1149.4882761110825;0.0009208605624735355
1150.7237812169142;0.000951928726863116
1151.9587911325268;0.0010202786652371287
1153.193306090343;0.0010416535660624504
1154.4273263226182;0.001096333609893918
1155.6608520614584;0.0010888772085309029
1156.8938835388028;0.0010682479478418827
1158.1264209864407;0.0010461274068802595
1159.3584646359948;0.0009897076524794102
1160.5900147189375;0.0009474548860453069
1161.8210714665834;0.0009166352683678269
1163.0516351100825;0.0008696602308191359
1164.2817058804349;0.0008622038294561207
1165.511284008478;0.0008201996679417789
1166.7403697248951;0.0008512678323313594
1167.968963260214;0.0008358580525964499
1169.1970648448012;0.0008460484095849097
1170.4246747088723;0.0009032138041220605
1171.6517930824773;0.0009091789252124727
1172.8784201955173;0.000995921203866601
1174.1045562777365;0.0010727217886596918
1175.3302015587194;0.0011957517126575112
1176.555356267896;0.0013384167104959488
1177.7800206345426;0.0015238316264003515
1179.0041948877747;0.0016421391628682613
1180.2278792565567;0.0017631807131692767
1181.4510739696964;0.0018904359312728047
1182.6737792558429;0.0019545606337487698
1183.8959953434946;0.0019980561919510365
1185.1177224609905;0.0019692247733473778
1186.3389608365187;0.001971213147044182
1187.5597106981083;0.0019128050189465284
1188.779972273637;0.0018118956359103322
1189.9997457908241;0.0017363379010930657
1191.2190314772395;0.001646861550398171
1192.4378295602921;0.0015790086472406983
1193.6561402672419;0.001553408452309668
1194.8739638251918;0.0015375015791505575
1196.0913004610943;0.0015521657187491655
1197.308150401742;0.0015936727868393064
1198.524513873777;0.001664011157117784
1199.7403911036915;0.00167768110986799
1200.9557823178166;0.0016955764731392264
1202.1706877423342;0.0017273902194574475
1203.3851076032727;0.001678178203292191
1204.5990421265078;0.0016230011824518442
1205.8124915377578;0.0015561424661427736
1207.0254560625992;0.0015019596321508288
1208.237935926438;0.0014137260150164366
1209.4499313545452;0.001364016905426979
1210.6614425720272;0.0013287235051393509
1211.8724698038452;0.0012636046158149838
1213.0830132748042;0.0012399927945807576
1214.2930732095574;0.0012591307749971747
1215.502649832606;0.001231790753081441
1216.711743368304;0.0012409869814291596
1217.920354040843;0.0012298023793846369
1219.1284820742753;0.0012479462893679738
