T(s);0.0
Raman Shift (cm-1);counts
554.2297170553272;-0.004050742369145155
555.7081472571703;-0.0036413988564163446
557.1859625307118;-0.0034427065402269363
558.6631631929271;-0.003423056798055768
560.1397495605659;-0.003024045377969742
561.6157219501391;-0.0026196981780231
563.0910806779283;-0.002426001476123929
564.565826059989;-0.0018160674953833222
566.0399584121386;-0.0013114247703924775
567.5134780499754;-0.0007276944816112518
568.9863852888525;2.4678769477759488e-05
570.4586804439064;0.00098257081117481
571.9303638300369;0.001961602596566081
573.4014357619186;0.0027615916915237904
574.8718965539919;0.0033614658750593662
576.3417465204736;0.004967589862644672
577.8109859753489;0.005620279815047979
579.2796152323726;0.006367861293256283
580.7476346050768;0.007289353292435408
582.2150444067565;0.008342613466084003
583.6818449504884;0.008637352846562862
585.1480365491146;0.009306186810135841
586.6136195152518;0.009685349650681019
588.0785941612888;0.010069849900901318
589.5429607993916;0.010928534902632236
591.0067197414936;0.011376386508345604
592.4698712992988;0.011740017682313919
593.932415784296;0.012430330738425255
595.394353507736;0.012683471664786339
596.8556847806504;0.013015699572861195
598.3164099138388;0.012678963132202625
599.7765292178838;0.013053471222519875
601.2360430031338;0.012816963717341423
602.6949515797164;0.01226444449275732
604.1532552575335;0.012201913632452488
605.6109543462612;0.011960342526435852
607.0680491553504;0.011955896392464638
608.5245399940309;0.011656512506306171
609.9804271713023;0.0119682801887393
611.4357109959432;0.012843788601458073
612.890391776511;0.01536297146230936
614.3444698213335;0.018435359001159668
615.7979454385169;0.021581565961241722
617.2508189359487;0.023705855011940002
618.7030906212865;0.024118123576045036
620.1547608019708;0.0227288119494915
621.6058297852127;0.02012793906033039
623.0562978780082;0.016710598021745682
624.5061653871236;0.014088788069784641
625.9554326191108;0.012573318555951118
627.4040998802892;0.011516232043504715
628.8521674767703;0.011881563812494278
630.2996357144294;0.012347054667770863
631.7465048989311;0.01507257204502821
633.192775335717;0.01900978945195675
634.6384473299985;0.02256251685321331
636.0835211867812;0.02620486356317997
637.5279972108366;0.027186956256628036
638.9718757067258;0.026825783774256706
640.4151569787821;0.024747323244810104
641.857841331122;0.02162587270140648
643.2999290676453;0.01761947013437748
644.7414204920238;0.01534629799425602
646.1823159077196;0.012846671976149082
647.6226156179686;0.010763282887637615
649.0623199257922;0.009686143137514591
650.5014291339866;0.008819791488349438
651.9399435451372;0.008417087607085705
653.3778634616044;0.007993380539119244
654.8151891855357;0.007827871479094028
656.2519210188555;0.0076624308712780476
657.6880592632752;0.007444378919899464
659.1236042202817;0.007500328589230776
660.5585561911547;0.007561614736914635
661.9929154769449;0.007875831797719002
663.4266823784922;0.008063684217631817
664.8598571964201;0.008346429094672203
666.2924402311347;0.008407986722886562
667.7244317828237;0.009022749029099941
669.1558321514595;0.009316233918070793
670.5866416367983;0.008840663358569145
672.0168605383811;0.009044728241860867
673.4464891555301;0.008226876147091389
674.8755277873573;0.007456502411514521
676.3039767327533;0.007165582850575447
677.7318362903985;0.006542848888784647
679.1591067587541;0.0063310847617685795
680.585788436069;0.0058875977993011475
682.0118816203798;0.0054810550063848495
683.4373866095012;0.005248422734439373
684.8623037010383;0.0048525515012443066
686.2866331923856;0.004646395333111286
687.7103753807163;0.004039941355586052
689.1335305629956;0.003907672595232725
690.5560990359719;0.003570021130144596
691.9780810961829;0.003495835931971669
693.39947703995;0.0035639540292322636
694.8202871633839;0.003363473806530237
696.2405117623806;0.003394851926714182
697.6601511326261;0.0033420107793062925
699.0792055695935;0.002925747772678733
700.4976753685437;0.0031364411115646362
701.9155608245205;0.0032681827433407307
703.3328622323642;0.003073378698900342
704.7495798866979;0.0030788250733166933
706.1657140819302;0.0036532802041620016
707.5812651122725;0.004122443962842226
708.9962332717062;0.004712838679552078
710.4106188540173;0.005224281921982765
711.8244221527713;0.004792827181518078
713.2376434613292;0.0043877805583179
714.6502830728332;0.004082893021404743
716.0623412802285;0.0030668978579342365
717.4738183762385;0.0027568782679736614
718.8847146533833;0.0024311228189617395
720.2950304039724;0.0023688338696956635
721.7047659200987;0.00271224626339972
723.1139214936575;0.0028239362873136997
724.5224974163273;0.0027671195566654205
725.9304939795808;0.0031686837319284678
727.3379114746803;0.0037599625065922737
728.7447501926817;0.004303898196667433
730.1510104244292;0.004926920868456364
731.5566924605624;0.00579760642722249
732.9617965915066;0.00650505255907774
734.3663231074897;0.007897403091192245
735.770272298525;0.0077041625045239925
737.1736444544176;0.007611081935465336
738.5764398647665;0.007122971583157778
739.9786588189669;0.00652430159971118
741.3803016062038;0.005883556790649891
742.7813685154582;0.005216539837419987
744.1818598354988;0.005266034044325352
745.5817758548945;0.0049837143160402775
746.9811168620022;0.004912181757390499
748.3798831449807;0.005083043593913317
749.7780749917771;0.005143345799297094
751.1756926901298;0.005451310891658068
752.5727365275781;0.006059617735445499
753.9692067914569;0.006167535670101643
755.3651037688915;0.006301862187683582
756.7604277467984;0.006462595891207457
758.1551790119016;0.006549646146595478
759.54935785071;0.006152111571282148
760.9429645495333;0.006155010312795639
762.335999394475;0.0065372702665627
763.7284626714328;0.007230409421026707
765.120354666107;0.008123799227178097
766.5116756639853;0.009549320675432682
767.9024259503605;0.012471013702452183
769.2926058103146;0.014760618098080158
770.682215528735;0.017087167128920555
772.071255390294;0.018744751811027527
773.4597256794733;0.018226735293865204
774.8476266805463;0.016860641539096832
776.2349586775829;0.014952016994357109
777.621721954455;0.013138282112777233
779.0079167948271;0.010961126536130905
780.3935434821658;0.008926274254918098
781.7786022997343;0.006975776515901089
783.1630935305959;0.005926169920712709
784.5470174576104;0.005303337238729
785.9303743634358;0.004538623616099358
787.3131645305307;0.004880303051322699
788.6953882411539;0.004584572743624449
790.0770457773651;0.004970900248736143
791.4581374210135;0.005467667244374752
792.8386634537617;0.006099711637943983
794.2186241570622;0.0071544828824698925
795.5980198121721;0.008370676077902317
796.976850700145;0.010467678308486938
798.3551171018388;0.012036002241075039
799.7328192979126;0.013705754652619362
801.1099575688232;0.016678711399435997
802.4865321948263;0.019122211262583733
803.8625434559818;0.022371061146259308
805.2379916321552;0.024376021698117256
806.6128770030032;0.026569319888949394
807.9871998479919;0.028865156695246696
809.3609604463859;0.030816005542874336
810.7341590772544;0.03285936266183853
812.1067960194652;0.034009646624326706
813.4788715516884;0.03463402017951012
814.8503859524035;0.036448631435632706
816.2213394998798;0.03749556094408035
817.5917324722021;0.03850659728050232
818.9615651472536;0.03829159215092659
820.3308378027159;0.03803187236189842
821.6995507160794;0.03725293278694153
823.0677041646356;0.03544135391712189
824.4352984254828;0.03436112031340599
825.8023337755172;0.03226930648088455
827.1688104914471;0.0308679286390543
828.5347288497762;0.03024882823228836
829.9000891268159;0.029622511938214302
831.2648915986863;0.02792000211775303
832.629136541304;0.02764982543885708
833.9928242303988;0.026921497657895088
835.3559549415012;0.02682449109852314
836.7185289499465;0.025948012247681618
838.0805465308728;0.024628838524222374
839.4420079592337;0.024177026003599167
840.8029135097746;0.02275940589606762
842.1632634570591;0.022129489108920097
843.5230580754464;0.02049504779279232
844.882297639112;0.01940782740712166
846.2409824220273;0.018213363364338875
847.5991126979812;0.016816396266222
848.9566887405573;0.014898442663252354
850.3137108231587;0.014237289316952229
851.6701792189826;0.013567354530096054
853.0260942010443;0.01202220655977726
854.3814560421594;0.01097581721842289
855.7362650149546;0.010065481066703796
857.090521391862;0.00950712151825428
858.4442254451225;0.008754310198128223
859.7973774467885;0.00850815698504448
861.1499776687106;0.007811534684151411
862.5020263825596;0.007953180000185966
863.8535238598066;0.007460687775164843
865.2044703717321;0.007379129063338041
866.5548661894343;0.007155250757932663
867.9047115838054;0.006776709109544754
869.2540068255621;0.007004862185567617
870.602752185215;0.006712757050991058
871.950947933099;0.0072187636978924274
873.2985943393475;0.007152142934501171
874.6456916739115;0.007658503483980894
875.992240206543;0.008024918846786022
877.3382402068133;0.008514932356774807
878.6836919441013;0.00800498016178608
880.0285956875928;0.008530588820576668
881.3729517062867;0.00833483412861824
882.716760268994;0.008932388387620449
884.0600216443321;0.008523495867848396
885.4027361007363;0.00835385825484991
886.7449039064471;0.007889363914728165
888.0865253295206;0.007722159381955862
889.4276006378171;0.007109005935490131
890.7681300990203;0.007157840300351381
892.1081139806174;0.006624133326113224
893.4475525499103;0.0061460575088858604
894.7864460740092;0.005654304288327694
896.1247948198449;0.005699563771486282
897.4625990541504;0.005327045917510986
898.7998590434835;0.005073341075330973
900.1365750542045;0.005005341023206711
901.4727473524871;0.004996274132281542
902.8083762043274;0.005470022093504667
904.1434618755284;0.0057149613276124
905.4780046317043;0.0057949102483689785
906.8120047382873;0.006426434963941574
908.1454624605191;0.0070023126900196075
909.4783780634608;0.007014086004346609
910.8107518119874;0.00812830775976181
912.142583970781;0.008731149137020111
913.4738748043454;0.009169396944344044
914.8046245769964;0.008616918697953224
916.1348335528629;0.008272252045571804
917.4645019958939;0.008225885219871998
918.7936301698453;0.008177433162927628
920.1222183382978;0.007227547001093626
921.4502667646407;0.007279273122549057
922.7777757120792;0.006688302848488092
924.1047454436389;0.0064290049485862255
925.4311762221562;0.006965506821870804
926.7570683102856;0.007008070591837168
928.0824219704996;0.006918800063431263
929.4072374650816;0.006981512065976858
930.7315150561377;0.007276479620486498
932.0552550055893;0.007064445409923792
933.3784575751695;0.007208936382085085
934.7011230264354;0.007487449795007706
936.0232516207557;0.007204520981758833
937.3448436193212;0.007352310232818127
938.6658992831341;0.006944965571165085
939.9864188730207;0.006072564981877804
941.3064026496193;0.005849818699061871
942.6258508733916;0.0051758065819740295
943.9447638046137;0.00452707102522254
945.2631417033791;0.003949857782572508
946.5809848296013;0.0036608860827982426
947.8982934430143;0.0034411016386002302
949.2150678031669;0.0032606711611151695
950.5313081694333;0.002857898361980915
951.8470148009959;0.0021102712489664555
953.1621879568623;0.0021190985571593046
954.476827895864;0.0021538608707487583
955.7909348766459;0.0020454535260796547
957.1045091576711;0.0021683264058083296
958.4175509972271;0.0015691928565502167
959.7300606534187;0.0017466056160628796
961.0420383841735;0.0016242638230323792
962.3534844472345;0.0017171474173665047
963.664399100169;0.0012466289335861802
964.9747826003669;0.0012895670952275395
966.2846352050309;0.0011893813498318195
967.5939571711866;0.0013852120609954
968.9027487556922;0.0014706198126077652
970.2110102152088;0.0011545743327587843
971.5187418062347;0.0012024283641949296
972.8259437850775;0.001421310123987496
974.1326164078756;0.0014022382674738765
975.438759930581;0.0013836690923199058
976.7443746089743;0.0017660966841503978
978.0494606986563;0.0022031888365745544
979.3540184550474;0.002706278348341584
980.6580481333928;0.0035577043890953064
981.9615499887576;0.0041364687494933605
983.2645242760356;0.005349762737751007
984.566971249936;0.006734715774655342
985.868891164995;0.00772691098973155
987.1702842755709;0.008750651963055134
988.4711508358437;0.010510978288948536
989.7714910998205;0.012847370468080044
991.0713053213282;0.01819605752825737
992.3705937540179;0.02752908132970333
993.6693566513699;0.04163973033428192
994.9675942666817;0.05859068036079407
996.2653068530756;0.07634571939706802
997.5624946635024;0.0895809531211853
998.8591579507332;0.09607869386672974
1000.1552969673652;0.09530019760131836
1001.4509119658223;0.08588632941246033
1002.7460031983467;0.07319002598524094
1004.0405709170171;0.05982614681124687
1005.3346153737265;0.04685582220554352
1006.628136820194;0.03705182671546936
1007.921135507974;0.028477320447564125
1009.2136116884344;0.022776314988732338
1010.5055656127763;0.018170857802033424
1011.7969975320271;0.014520465396344662
1013.0879076970323;0.01179344579577446
1014.3782963584745;0.010473161935806274
1015.668163766852;0.009618204087018967
1016.9575101724986;0.009018604643642902
1018.24633582557;0.009056302718818188
1019.5346409760486;0.008907075971364975
1020.8224258737454;0.009530503302812576
1022.1096907682978;0.010765599086880684
1023.3964359091678;0.012252352200448513
1024.6826615456528;0.014086863026022911
1025.968367926865;0.015946682542562485
1027.2535553017574;0.018602250143885612
1028.538223919102;0.021244363859295845
1029.8223740274996;0.022251173853874207
1031.1060058753847;0.023121576756238937
1032.3891197110136;0.02253185771405697
1033.6717157824753;0.022056160494685173
1034.9537943376858;0.019185829907655716
1036.2353556243854;0.01773129776120186
1037.5163998901535;0.015483723022043705
1038.796927382388;0.013573297299444675
1040.0769383483218;0.011113012209534645
1041.3564330350139;0.01023524533957243
1042.6354116893567;0.008998405188322067
1043.9138745580672;0.007560520898550749
1045.1918218876967;0.006969128269702196
1046.46925392462;0.006466252729296684
1047.7461709150502;0.005779628176242113
1049.0225731050236;0.005187629256397486
1050.2984607404087;0.005050454288721085
1051.5738340669097;0.004824202507734299
1052.8486933300508;0.004208460450172424
1054.1230387751932;0.003931868821382523
1055.3968706475316;0.0033710680436342955
1056.6701891920868;0.003050435334444046
1057.9429946537089;0.0026662840973585844
1059.2152872770866;0.0024005204904824495
1060.4870673067362;0.002005220390856266
1061.758334987002;0.0016923451330512762
1063.0290905620636;0.0015686795813962817
1064.2993342759337;0.0014937393134459853
1065.5690663724538;0.0014537990791723132
1066.8382870953003;0.0010263375006616116
1068.1069966879766;0.000679276417940855
1069.3751953938252;0.001114108134061098
1070.6428834560177;0.0009498363360762596
1071.910061117556;0.0011819015489891171
1073.17672862128;0.0008519253460690379
1074.44288620986;0.0011022679973393679
1075.7085341257973;0.0008321006898768246
1076.9736726114286;0.0008732394780963659
1078.2383019089255;0.0011905466672033072
1079.5024222602883;0.0016403381014242768
1080.7660339073552;0.0017856946215033531
1082.0291370917967;0.0021955149713903666
1083.2917320551167;0.0025373760145157576
1084.5538190386524;0.002722411183640361
1085.8153982835775;0.002386723179370165
1087.0764700309019;0.002551544224843383
1088.3370345214616;0.002084954408928752
1089.597091995934;0.002710821805521846
1090.8566426948325;0.002257446525618434
1092.1156868584983;0.0028606969863176346
1093.3742247271125;0.0023830707650631666
1094.632256540694;0.002903322922065854
1095.8897825390875;0.002871420932933688
1097.1468029619841;0.003590554930269718
1098.4033180489057;0.0042536379769444466
1099.6593280392053;0.005398966372013092
1100.9148331720776;0.006629408337175846
1102.1698336865538;0.007893492467701435
1103.4243298214951;0.010224084369838238
1104.6783218156081;0.012319409288465977
1105.9318099074233;0.01505195815116167
1107.1847943353225;0.01759006828069687
1108.4372753375114;0.020028933882713318
1109.6892531520373;0.022052939981222153
1110.940728016789;0.0233920905739069
1112.191700169483;0.024339426308870316
1113.4421698476804;0.023438282310962677
1114.692137288776;0.022720269858837128
1115.941602730002;0.02122684009373188
1117.190566408434;0.018752822652459145
1118.4390285609754;0.016542276367545128
1119.686989424374;0.013981865718960762
1120.9344492352138;0.012900997884571552
1122.1814082299225;0.010280493646860123
1123.4278666447517;0.008824624121189117
1124.6738247158087;0.0074263643473386765
1125.9192826790243;0.006170112639665604
1127.1642407701797;0.005385302007198334
1128.4086992248876;0.0047340067103505135
1129.6526582786041;0.004407738335430622
1130.8961181666202;0.003913676831871271
1132.1390791240674;0.003292861394584179
1133.3815413859202;0.003223585430532694
1134.6235051869842;0.003176371566951275
1135.8649707619134;0.0027704425156116486
1137.1059383452014;0.003001934615895152
1138.346408171172;0.0024696257896721363
1139.5863804739959;0.0029391127172857523
1140.825855487687;0.0029293950647115707
1142.064833446095;0.0029714975971728563
1143.3033145829065;0.0029984083957970142
1144.5412991316568;0.00342079671099782
1145.7787873257155;0.004044101573526859
1147.0157793982994;0.004096841439604759
1148.252275582455;0.004602851811796427
1149.4882761110825;0.005885808728635311
1150.7237812169142;0.006565028801560402
1151.9587911325268;0.008036716841161251
1153.193306090343;0.008514042012393475
1154.4273263226182;0.00969950295984745
1155.6608520614584;0.00956890732049942
1156.8938835388028;0.009161265566945076
1158.1264209864407;0.008724844083189964
1159.3584646359948;0.007563185412436724
1160.5900147189375;0.006703281309455633
1161.8210714665834;0.006087202113121748
1163.0516351100825;0.005129873286932707
1164.2817058804349;0.0050128004513680935
1165.511284008478;0.00416467385366559
1166.7403697248951;0.004867109470069408
1167.968963260214;0.004585934802889824
1169.1970648448012;0.004849781282246113
1170.4246747088723;0.006110417190939188
1171.6517930824773;0.006287788040935993
1172.8784201955173;0.008178000338375568
1174.1045562777365;0.009859244339168072
1175.3302015587194;0.012522651813924313
1176.555356267896;0.015602992847561836
1177.7800206345426;0.019591297954320908
1179.0041948877747;0.022159481421113014
1180.2278792565567;0.02478725276887417
1181.4510739696964;0.027547994628548622
1182.6737792558429;0.028971245512366295
1183.8959953434946;0.029958028346300125
1185.1177224609905;0.029411347582936287
1186.3389608365187;0.029519010335206985
1187.5597106981083;0.02834455668926239
1188.779972273637;0.026266654953360558
1189.9997457908241;0.024725336581468582
1191.2190314772395;0.02288723550736904
1192.4378295602921;0.021502558141946793
1193.6561402672419;0.02100922167301178
1194.8739638251918;0.02070735953748226
1196.0913004610943;0.02103021740913391
1197.308150401742;0.02188526839017868
1198.524513873777;0.02330642379820347
1199.7403911036915;0.0234784334897995
1200.9557823178166;0.02370295859873295
1202.1706877423342;0.024201275780797005
1203.3851076032727;0.022978901863098145
1204.5990421265078;0.02164900302886963
1205.8124915377578;0.020098887383937836
1207.0254560625992;0.01884937658905983
1208.237935926438;0.0169086791574955
1209.4499313545452;0.01580803468823433
1210.6614425720272;0.015035084448754787
1211.8724698038452;0.013644520193338394
1213.0830132748042;0.013145660981535912
1214.2930732095574;0.013563201762735844
1215.502649832606;0.013003951869904995
1216.711743368304;0.013224576599895954
1217.920354040843;0.01301654428243637
1219.1284820742753;0.013432408683001995
1220.336127692491;0.01378585398197174
1221.5432911192365;0.013303842395544052
1222.749972578103;0.01401070598512888
1223.9561722925314;0.014181947335600853
1225.1618904858108;0.014590303413569927
1226.3671273810808;0.014712168835103512
1227.5718832013274;0.01451057381927967
1228.7761581693908;0.014625930227339268
1229.9799525079575;0.014116022735834122
1231.18326643956;0.013990599662065506
1232.3861001865898;0.013263090513646603
